URL	chrom://4sdb5w3/ChromeleonLocal/LC-MS/240719-all-tissues-peak-ID-MS2-rerun.seq/953.smp/UV_VIS_1.channel/UV_VIS_1.chm
Channel	UV_VIS_1

Injection Information:
Data Vault	ChromeleonLocal
Sequence	240719-all-tissues-peak-ID-MS2-rerun
Name	STMIX5mM-pos
Number	2
Position	G:A1
Comment	
Processing Method	
Instrument Method	LC-MS-test-old-method-flow-0.2-ml-min-Acquity-BEH-55min - pos
Type	Unknown
Status	Finished
Inject Time	7/22/2024 5:32:53 PM +02:00
Volume (µl)	2.0000
Dilution Factor	1.0000
Weight	1.0000

Chromatogram Data Information:
Time Min. (min)	0.016750
Time Max. (min)	55.000083
Data Points	3300
Detector	UV
Generating Data System	Chromeleon 7.3.2.11814
Exporting Data System	Chromeleon 7.3.2.0
Operator	Instrument Controller
Signal Quantity	Absorbance
Signal Unit	mAU
Signal Min.	-0.025450
Signal Max.	2,138.812430
Channel	UV_VIS_1
Driver Name	Thermo.Vanquish.VWD.dll
Channel Type	Evaluation
Min. Step (s)	1
Max. Step (s)	1
Average Step (s)	1

Signal Parameter Information:
Signal Info	WVL:280 nm

Chromatogram Data:
Time (min)	Step (s)	Value (mAU)
0.016750	n.a.	0.000000
0.033417	1	0.000010
0.050083	1	0.000060
0.066750	1	0.000300
0.083417	1	0.000840
0.100083	1	0.001680
0.116750	1	0.002530
0.133417	1	0.002960
0.150083	1	0.002660
0.166750	1	0.001680
0.183417	1	0.000300
0.200083	1	-0.001200
0.216750	1	-0.002690
0.233417	1	-0.004120
0.250083	1	-0.005470
0.266750	1	-0.006750
0.283417	1	-0.007940
0.300083	1	-0.008910
0.316750	1	-0.009570
0.333417	1	-0.009960
0.350083	1	-0.010260
0.366750	1	-0.010570
0.383417	1	-0.010880
0.400083	1	-0.011160
0.416750	1	-0.011510
0.433417	1	-0.011990
0.450083	1	-0.012590
0.466750	1	-0.013180
0.483417	1	-0.013700
0.500083	1	-0.014240
0.516750	1	-0.014910
0.533417	1	-0.015730
0.550083	1	-0.016620
0.566750	1	-0.017450
0.583417	1	-0.018050
0.600083	1	-0.018460
0.616750	1	-0.018810
0.633417	1	-0.019250
0.650083	1	-0.019880
0.666750	1	-0.020790
0.683417	1	-0.022000
0.700083	1	-0.023320
0.716750	1	-0.024520
0.733417	1	-0.025320
0.750083	1	-0.025450
0.766750	1	-0.024590
0.783417	1	-0.022490
0.800083	1	-0.019200
0.816750	1	-0.015020
0.833417	1	-0.010600
0.850083	1	-0.006610
0.866750	1	-0.003500
0.883417	1	-0.001420
0.900083	1	-0.000350
0.916750	1	-0.000140
0.933417	1	-0.000410
0.950083	1	-0.000440
0.966750	1	0.000710
0.983417	1	0.003760
1.000083	1	0.008750
1.016750	1	0.015140
1.033417	1	0.022370
1.050083	1	0.030680
1.066750	1	0.042500
1.083417	1	0.066160
1.100083	1	0.124960
1.116750	1	0.273730
1.133417	1	0.620870
1.150083	1	1.352670
1.166750	1	2.746880
1.183417	1	5.143840
1.200083	1	8.848700
1.216750	1	13.970470
1.233417	1	20.244260
1.250083	1	26.956090
1.266750	1	33.107510
1.283417	1	37.783390
1.300083	1	40.474280
1.316750	1	41.140530
1.333417	1	40.049990
1.350083	1	37.581720
1.366750	1	34.129330
1.383417	1	30.095970
1.400083	1	25.906460
1.416750	1	21.984610
1.433417	1	18.696150
1.450083	1	16.283190
1.466750	1	14.814090
1.483417	1	14.164620
1.500083	1	14.041680
1.516750	1	14.057860
1.533417	1	13.846910
1.550083	1	13.176530
1.566750	1	12.006330
1.583417	1	10.474240
1.600083	1	8.835040
1.616750	1	7.378610
1.633417	1	6.339650
1.650083	1	5.818690
1.666750	1	5.753060
1.683417	1	5.959610
1.700083	1	6.224140
1.716750	1	6.384550
1.733417	1	6.368940
1.750083	1	6.184630
1.766750	1	5.881110
1.783417	1	5.514100
1.800083	1	5.126830
1.816750	1	4.750960
1.833417	1	4.428120
1.850083	1	4.263200
1.866750	1	4.506970
1.883417	1	5.591100
1.900083	1	7.986260
1.916750	1	11.870680
1.933417	1	16.823040
1.950083	1	21.827070
1.966750	1	25.662200
1.983417	1	27.445340
2.000083	1	26.978070
2.016750	1	24.722630
2.033417	1	21.494420
2.050083	1	18.095550
2.066750	1	15.074040
2.083417	1	12.669740
2.100083	1	10.933900
2.116750	1	10.278100
2.133417	1	13.396020
2.150083	1	29.085010
2.166750	1	75.399410
2.183417	1	176.892460
2.200083	1	353.666510
2.216750	1	607.119570
2.233417	1	911.379250
2.250083	1	1,216.698760
2.266750	1	1,464.244410
2.283417	1	1,605.512140
2.300083	1	1,617.514150
2.316750	1	1,507.707160
2.333417	1	1,308.143780
2.350083	1	1,062.952740
2.366750	1	814.911150
2.383417	1	595.734510
2.400083	1	422.119320
2.416750	1	296.978820
2.433417	1	213.754080
2.450083	1	161.467260
2.466750	1	128.876860
2.483417	1	107.012020
2.500083	1	90.087290
2.516750	1	75.225960
2.533417	1	61.570790
2.550083	1	49.293060
2.566750	1	38.822590
2.583417	1	30.414630
2.600083	1	24.017220
2.616750	1	19.329370
2.633417	1	15.934950
2.650083	1	13.430630
2.666750	1	11.560110
2.683417	1	10.663750
2.700083	1	13.077000
2.716750	1	25.448400
2.733417	1	60.072860
2.750083	1	132.539520
2.766750	1	255.251100
2.783417	1	429.882950
2.800083	1	643.198530
2.816750	1	868.805040
2.833417	1	1,074.125550
2.850083	1	1,229.356160
2.866750	1	1,314.714460
2.883417	1	1,323.702590
2.900083	1	1,262.247470
2.916750	1	1,145.159060
2.933417	1	991.743820
2.950083	1	821.880630
2.966750	1	653.108450
2.983417	1	498.801920
3.000083	1	367.366200
3.016750	1	262.346670
3.033417	1	183.268450
3.050083	1	126.911570
3.066750	1	88.675580
3.083417	1	63.738500
3.100083	1	47.842270
3.116750	1	37.678390
3.133417	1	30.947930
3.150083	1	26.213590
3.166750	1	22.660590
3.183417	1	19.857620
3.200083	1	17.573150
3.216750	1	15.664050
3.233417	1	14.024370
3.250083	1	12.571040
3.266750	1	11.246450
3.283417	1	10.024990
3.300083	1	8.916450
3.316750	1	7.962080
3.333417	1	7.220450
3.350083	1	6.743280
3.366750	1	6.548200
3.383417	1	6.602080
3.400083	1	6.824690
3.416750	1	7.109530
3.433417	1	7.350740
3.450083	1	7.465810
3.466750	1	7.409480
3.483417	1	7.176490
3.500083	1	6.794370
3.516750	1	6.310400
3.533417	1	5.778240
3.550083	1	5.248220
3.566750	1	4.762790
3.583417	1	4.356450
3.600083	1	4.057730
3.616750	1	3.890980
3.633417	1	3.874820
3.650083	1	4.016570
3.666750	1	4.304580
3.683417	1	4.702760
3.700083	1	5.152160
3.716750	1	5.580970
3.733417	1	5.919950
3.750083	1	6.117730
3.766750	1	6.151070
3.783417	1	6.027200
3.800083	1	5.778350
3.816750	1	5.451000
3.833417	1	5.094180
3.850083	1	4.749610
3.866750	1	4.445500
3.883417	1	4.194650
3.900083	1	3.996870
3.916750	1	3.845570
3.933417	1	3.742470
3.950083	1	3.739890
3.966750	1	4.058070
3.983417	1	5.326420
4.000083	1	8.897280
4.016750	1	17.004090
4.033417	1	32.476380
4.050083	1	57.920690
4.066750	1	94.608010
4.083417	1	141.564900
4.100083	1	195.379550
4.116750	1	250.901960
4.133417	1	302.485790
4.150083	1	345.143800
4.166750	1	375.222560
4.183417	1	390.633050
4.200083	1	390.850880
4.216750	1	376.791210
4.233417	1	350.549120
4.250083	1	315.024730
4.266750	1	273.522790
4.283417	1	229.405450
4.300083	1	185.804840
4.316750	1	145.365710
4.333417	1	110.021440
4.350083	1	80.854810
4.366750	1	58.097190
4.383417	1	41.273630
4.400083	1	29.447070
4.416750	1	21.486600
4.433417	1	16.291870
4.450083	1	12.935750
4.466750	1	10.721760
4.483417	1	9.177090
4.500083	1	8.010600
4.516750	1	7.060450
4.533417	1	6.246730
4.550083	1	5.535300
4.566750	1	4.913660
4.583417	1	4.376890
4.600083	1	3.920640
4.616750	1	3.538610
4.633417	1	3.222340
4.650083	1	2.962080
4.666750	1	2.747880
4.683417	1	2.570410
4.700083	1	2.421810
4.716750	1	2.296310
4.733417	1	2.190390
4.750083	1	2.102270
4.766750	1	2.031180
4.783417	1	1.976610
4.800083	1	1.937630
4.816750	1	1.912730
4.833417	1	1.899730
4.850083	1	1.895790
4.866750	1	1.897630
4.883417	1	1.902130
4.900083	1	1.906790
4.916750	1	1.909910
4.933417	1	1.910310
4.950083	1	1.907100
4.966750	1	1.899630
4.983417	1	1.887580
5.000083	1	1.871360
5.016750	1	1.852510
5.033417	1	1.833550
5.050083	1	1.817260
5.066750	1	1.805850
5.083417	1	1.800430
5.100083	1	1.800720
5.116750	1	1.805110
5.133417	1	1.811200
5.150083	1	1.816530
5.166750	1	1.819460
5.183417	1	1.819830
5.200083	1	1.818810
5.216750	1	1.818000
5.233417	1	1.818480
5.250083	1	1.820390
5.266750	1	1.823040
5.283417	1	1.825110
5.300083	1	1.825140
5.316750	1	1.821880
5.333417	1	1.814690
5.350083	1	1.803770
5.366750	1	1.790490
5.383417	1	1.777420
5.400083	1	1.767940
5.416750	1	1.765160
5.433417	1	1.770740
5.450083	1	1.784090
5.466750	1	1.802600
5.483417	1	1.822500
5.500083	1	1.840070
5.516750	1	1.852810
5.533417	1	1.859880
5.550083	1	1.862060
5.566750	1	1.861120
5.583417	1	1.859050
5.600083	1	1.857220
5.616750	1	1.855720
5.633417	1	1.853200
5.650083	1	1.847100
5.666750	1	1.834220
5.683417	1	1.811370
5.700083	1	1.776420
5.716750	1	1.729120
5.733417	1	1.671540
5.750083	1	1.607990
5.766750	1	1.544290
5.783417	1	1.486880
5.800083	1	1.441970
5.816750	1	1.415110
5.833417	1	1.411190
5.850083	1	1.438250
5.866750	1	1.550060
5.883417	1	2.069590
5.900083	1	4.223870
5.916750	1	11.158620
5.933417	1	28.660260
5.950083	1	64.599830
5.966750	1	126.693110
5.983417	1	219.227970
6.000083	1	340.181460
6.016750	1	480.229600
6.033417	1	624.416610
6.050083	1	755.955180
6.066750	1	860.552780
6.083417	1	929.526250
6.100083	1	960.766190
6.116750	1	957.701130
6.133417	1	927.133660
6.150083	1	876.944370
6.166750	1	814.356180
6.183417	1	745.018320
6.200083	1	672.824380
6.216750	1	600.208690
6.233417	1	528.658100
6.250083	1	459.289810
6.266750	1	393.518750
6.283417	1	333.874720
6.300083	1	284.713600
6.316750	1	252.146850
6.333417	1	242.661940
6.350083	1	260.761280
6.366750	1	306.755330
6.383417	1	375.876200
6.400083	1	459.176260
6.416750	1	545.791830
6.433417	1	625.586190
6.450083	1	691.166680
6.466750	1	738.717050
6.483417	1	767.682730
6.500083	1	779.761010
6.516750	1	777.740400
6.533417	1	764.577590
6.550083	1	742.861460
6.566750	1	714.624690
6.583417	1	681.377350
6.600083	1	644.235470
6.616750	1	604.057530
6.633417	1	561.548570
6.650083	1	517.327610
6.666750	1	471.969170
6.683417	1	426.031600
6.700083	1	380.080290
6.716750	1	334.708250
6.733417	1	290.549890
6.750083	1	248.280270
6.766750	1	208.592850
6.783417	1	172.153340
6.800083	1	139.534660
6.816750	1	111.146400
6.833417	1	87.177600
6.850083	1	67.570230
6.866750	1	52.032600
6.883417	1	40.089470
6.900083	1	31.155560
6.916750	1	24.614040
6.933417	1	19.883430
6.950083	1	16.462500
6.966750	1	13.951320
6.983417	1	12.052330
7.000083	1	10.558360
7.016750	1	9.334580
7.033417	1	8.301130
7.050083	1	7.427080
7.066750	1	6.775110
7.083417	1	6.702440
7.100083	1	8.321160
7.116750	1	14.065290
7.133417	1	27.837730
7.150083	1	54.230770
7.166750	1	96.918590
7.183417	1	156.985420
7.200083	1	232.061510
7.216750	1	316.661090
7.233417	1	403.497730
7.250083	1	485.193120
7.266750	1	555.769040
7.283417	1	611.514140
7.300083	1	651.115600
7.316750	1	675.214490
7.333417	1	685.684060
7.350083	1	684.916670
7.366750	1	675.294820
7.383417	1	658.895550
7.400083	1	637.388890
7.416750	1	612.057100
7.433417	1	583.866730
7.450083	1	553.548490
7.466750	1	521.663410
7.483417	1	488.651260
7.500083	1	454.865060
7.516750	1	420.596700
7.533417	1	386.098560
7.550083	1	351.604190
7.566750	1	317.348880
7.583417	1	283.589240
7.600083	1	250.620700
7.616750	1	218.790630
7.633417	1	188.503760
7.650083	1	160.216650
7.666750	1	134.419600
7.683417	1	111.607730
7.700083	1	92.249280
7.716750	1	76.769550
7.733417	1	65.581720
7.750083	1	59.198310
7.766750	1	58.425930
7.783417	1	64.563070
7.800083	1	79.429640
7.816750	1	105.061060
7.833417	1	143.053970
7.850083	1	193.769540
7.866750	1	255.725070
7.883417	1	325.451880
7.900083	1	397.911420
7.916750	1	467.350960
7.933417	1	528.340410
7.950083	1	576.701690
7.966750	1	610.110370
7.983417	1	628.269510
8.000083	1	632.675740
8.016750	1	626.083070
8.033417	1	611.814020
8.050083	1	593.077040
8.066750	1	572.429610
8.083417	1	551.477860
8.100083	1	530.836870
8.116750	1	510.310400
8.133417	1	489.201580
8.150083	1	466.652580
8.166750	1	441.928700
8.183417	1	414.600710
8.200083	1	384.618100
8.216750	1	352.293710
8.233417	1	318.232170
8.250083	1	283.234330
8.266750	1	248.199730
8.283417	1	214.038120
8.300083	1	181.594490
8.316750	1	151.588520
8.333417	1	124.568850
8.350083	1	100.884260
8.366750	1	80.674280
8.383417	1	63.880700
8.400083	1	50.278180
8.416750	1	39.518840
8.433417	1	31.183480
8.450083	1	24.831460
8.466750	1	20.041980
8.483417	1	16.442770
8.500083	1	13.725190
8.516750	1	11.647570
8.533417	1	10.030060
8.550083	1	8.744620
8.566750	1	7.703130
8.583417	1	6.846160
8.600083	1	6.133610
8.616750	1	5.537820
8.633417	1	5.038800
8.650083	1	4.621020
8.666750	1	4.271480
8.683417	1	3.978830
8.700083	1	3.732990
8.716750	1	3.524930
8.733417	1	3.346690
8.750083	1	3.191510
8.766750	1	3.054120
8.783417	1	2.930730
8.800083	1	2.818820
8.816750	1	2.717030
8.833417	1	2.625160
8.850083	1	2.543970
8.866750	1	2.474960
8.883417	1	2.420160
8.900083	1	2.381930
8.916750	1	2.362870
8.933417	1	2.365740
8.950083	1	2.393570
8.966750	1	2.450050
8.983417	1	2.540040
9.000083	1	2.670000
9.016750	1	2.848120
9.033417	1	3.084250
9.050083	1	3.389850
9.066750	1	3.777580
9.083417	1	4.260620
9.100083	1	4.851810
9.116750	1	5.562500
9.133417	1	6.401160
9.150083	1	7.372130
9.166750	1	8.474470
9.183417	1	9.700690
9.200083	1	11.035840
9.216750	1	12.457230
9.233417	1	13.934660
9.250083	1	15.431440
9.266750	1	16.905990
9.283417	1	18.313860
9.300083	1	19.610020
9.316750	1	20.751320
9.333417	1	21.698760
9.350083	1	22.419120
9.366750	1	22.886000
9.383417	1	23.080410
9.400083	1	22.991070
9.416750	1	22.614880
9.433417	1	21.957740
9.450083	1	21.035580
9.466750	1	19.876550
9.483417	1	18.527930
9.500083	1	17.083450
9.516750	1	15.772390
9.533417	1	15.164100
9.550083	1	16.466430
9.566750	1	21.726950
9.583417	1	33.653080
9.600083	1	54.938300
9.616750	1	87.324930
9.633417	1	130.849270
9.650083	1	183.626440
9.666750	1	242.235460
9.683417	1	302.483700
9.700083	1	360.229220
9.716750	1	412.021910
9.733417	1	455.471090
9.750083	1	489.351070
9.766750	1	513.500020
9.783417	1	528.580150
9.800083	1	535.772880
9.816750	1	536.480150
9.833417	1	532.085700
9.850083	1	523.802570
9.866750	1	512.605660
9.883417	1	499.229490
9.900083	1	484.203960
9.916750	1	467.904270
9.933417	1	450.598710
9.950083	1	432.485540
9.966750	1	413.716860
9.983417	1	394.412370
10.000083	1	374.668040
10.016750	1	354.562830
10.033417	1	334.164920
10.050083	1	313.537840
10.066750	1	292.746350
10.083417	1	271.861750
10.100083	1	250.965800
10.116750	1	230.154040
10.133417	1	209.538800
10.150083	1	189.251590
10.166750	1	169.443930
10.183417	1	150.286070
10.200083	1	131.962990
10.216750	1	114.666770
10.233417	1	98.584920
10.250083	1	83.885890
10.266750	1	70.703560
10.283417	1	59.123540
10.300083	1	49.173690
10.316750	1	40.820960
10.333417	1	33.975710
10.350083	1	28.502980
10.366750	1	24.239280
10.383417	1	21.011480
10.400083	1	18.654880
10.416750	1	17.028190
10.433417	1	16.024150
10.450083	1	15.575400
10.466750	1	15.654850
10.483417	1	16.270120
10.500083	1	17.451720
10.516750	1	19.234900
10.533417	1	21.636800
10.550083	1	24.632720
10.566750	1	28.137060
10.583417	1	31.994400
10.600083	1	35.984480
10.616750	1	39.842310
10.633417	1	43.290280
10.650083	1	46.076240
10.666750	1	48.009980
10.683417	1	48.991620
10.700083	1	49.025810
10.716750	1	48.217620
10.733417	1	46.748850
10.750083	1	44.838020
10.766750	1	42.692160
10.783417	1	40.462640
10.800083	1	38.218220
10.816750	1	35.944210
10.833417	1	33.568140
10.850083	1	31.002990
10.866750	1	28.192580
10.883417	1	25.143440
10.900083	1	21.933690
10.916750	1	18.697850
10.933417	1	15.595510
10.950083	1	12.775930
10.966750	1	10.349900
10.983417	1	8.375960
11.000083	1	6.861770
11.016750	1	5.776790
11.033417	1	5.069940
11.050083	1	4.686920
11.066750	1	4.583920
11.083417	1	4.737120
11.100083	1	5.151000
11.116750	1	5.868910
11.133417	1	6.986380
11.150083	1	8.660470
11.166750	1	11.100960
11.183417	1	14.529230
11.200083	1	19.102870
11.216750	1	24.825020
11.233417	1	31.475130
11.250083	1	38.598680
11.266750	1	45.573250
11.283417	1	51.735690
11.300083	1	56.526060
11.316750	1	59.594710
11.333417	1	60.835370
11.350083	1	60.342900
11.366750	1	58.328630
11.383417	1	55.040470
11.400083	1	50.722770
11.416750	1	45.635590
11.433417	1	40.191410
11.450083	1	35.353540
11.466750	1	33.345950
11.483417	1	38.284560
11.500083	1	55.987350
11.516750	1	92.551270
11.533417	1	152.105260
11.550083	1	234.718600
11.566750	1	335.420240
11.583417	1	444.853940
11.600083	1	551.493350
11.616750	1	644.716320
11.633417	1	717.633880
11.650083	1	768.641870
11.666750	1	801.206190
11.683417	1	822.112140
11.700083	1	838.950440
11.716750	1	857.766830
11.733417	1	881.583350
11.750083	1	910.081460
11.766750	1	940.315450
11.783417	1	968.030000
11.800083	1	989.056640
11.816750	1	1,000.359080
11.833417	1	1,000.516120
11.850083	1	989.665010
11.866750	1	969.088130
11.883417	1	940.671560
11.900083	1	906.420080
11.916750	1	868.127930
11.933417	1	827.223900
11.950083	1	784.755870
11.966750	1	741.459180
11.983417	1	697.856850
12.000083	1	654.353520
12.016750	1	611.302050
12.033417	1	569.036590
12.050083	1	527.876330
12.066750	1	488.108410
12.083417	1	449.960030
12.100083	1	413.570480
12.116750	1	378.974080
12.133417	1	346.100680
12.150083	1	314.795680
12.166750	1	284.856930
12.183417	1	256.081780
12.200083	1	228.315550
12.216750	1	201.492350
12.233417	1	175.660930
12.250083	1	150.989920
12.266750	1	127.749420
12.283417	1	106.269610
12.300083	1	86.882740
12.316750	1	69.860490
12.333417	1	55.361170
12.350083	1	43.399150
12.366750	1	33.842990
12.383417	1	26.440640
12.400083	1	20.862740
12.416750	1	16.751470
12.433417	1	13.764080
12.450083	1	11.604090
12.466750	1	10.039050
12.483417	1	8.908880
12.500083	1	8.132350
12.516750	1	7.718750
12.533417	1	7.788650
12.550083	1	8.602990
12.566750	1	10.599340
12.583417	1	14.443140
12.600083	1	21.117280
12.616750	1	32.078370
12.633417	1	49.470250
12.650083	1	76.294080
12.666750	1	116.329410
12.683417	1	173.574190
12.700083	1	251.105410
12.716750	1	349.544370
12.733417	1	465.624910
12.750083	1	591.544030
12.766750	1	715.674300
12.783417	1	824.766450
12.800083	1	907.070990
12.816750	1	955.210700
12.833417	1	967.581020
12.850083	1	947.718090
12.866750	1	902.114150
12.883417	1	837.707720
12.900083	1	760.248660
12.916750	1	674.019810
12.933417	1	582.534340
12.950083	1	489.390460
12.966750	1	398.622680
12.983417	1	314.385640
13.000083	1	240.245980
13.016750	1	178.510590
13.033417	1	129.902230
13.050083	1	93.665250
13.066750	1	67.991550
13.083417	1	50.571480
13.100083	1	39.090670
13.116750	1	31.566590
13.133417	1	26.500030
13.150083	1	22.876060
13.166750	1	20.075440
13.183417	1	17.755690
13.200083	1	15.743550
13.216750	1	13.957670
13.233417	1	12.362470
13.250083	1	10.944520
13.266750	1	9.701780
13.283417	1	8.638360
13.300083	1	7.761170
13.316750	1	7.077600
13.333417	1	6.594620
13.350083	1	6.319340
13.366750	1	6.260970
13.383417	1	6.433290
13.400083	1	6.855270
13.416750	1	7.546710
13.433417	1	8.516110
13.450083	1	9.742320
13.466750	1	11.157490
13.483417	1	12.641750
13.500083	1	14.036420
13.516750	1	15.173220
13.533417	1	15.910570
13.550083	1	16.165460
13.566750	1	15.931690
13.583417	1	15.278500
13.600083	1	14.329870
13.616750	1	13.231170
13.633417	1	12.114680
13.650083	1	11.074900
13.666750	1	10.159530
13.683417	1	9.375450
13.700083	1	8.703420
13.716750	1	8.114300
13.733417	1	7.581370
13.750083	1	7.086640
13.766750	1	6.622170
13.783417	1	6.188420
13.800083	1	5.791450
13.816750	1	5.439970
13.833417	1	5.142540
13.850083	1	4.905260
13.866750	1	4.730560
13.883417	1	4.617060
13.900083	1	4.560220
13.916750	1	4.552940
13.933417	1	4.586190
13.950083	1	4.650290
13.966750	1	4.741320
13.983417	1	4.906300
14.000083	1	5.475040
14.016750	1	7.755640
14.033417	1	15.203680
14.050083	1	34.243550
14.066750	1	73.438350
14.083417	1	140.582370
14.100083	1	238.922720
14.116750	1	364.546410
14.133417	1	506.379170
14.150083	1	648.843810
14.166750	1	775.957420
14.183417	1	875.154870
14.200083	1	939.530370
14.216750	1	968.095690
14.233417	1	964.489310
14.250083	1	934.974940
14.266750	1	886.520340
14.283417	1	825.438630
14.300083	1	756.724320
14.316750	1	683.967700
14.333417	1	609.624120
14.350083	1	535.417730
14.366750	1	462.718230
14.383417	1	392.798880
14.400083	1	326.944830
14.416750	1	266.424820
14.433417	1	212.367160
14.450083	1	165.599350
14.466750	1	126.514110
14.483417	1	95.010250
14.500083	1	70.527270
14.516750	1	52.160240
14.533417	1	38.819030
14.550083	1	29.390060
14.566750	1	22.867070
14.583417	1	18.435650
14.600083	1	15.526450
14.616750	1	13.941910
14.633417	1	14.303390
14.650083	1	18.955080
14.666750	1	32.794170
14.683417	1	62.865250
14.700083	1	116.059600
14.716750	1	195.761070
14.733417	1	299.319710
14.750083	1	417.857180
14.766750	1	538.539580
14.783417	1	648.157740
14.800083	1	736.400410
14.816750	1	797.666100
14.833417	1	831.148550
14.850083	1	839.666950
14.866750	1	828.000860
14.883417	1	801.376020
14.900083	1	764.445750
14.916750	1	720.823190
14.933417	1	673.040110
14.950083	1	622.747040
14.966750	1	570.993840
14.983417	1	518.490250
15.000083	1	465.802290
15.016750	1	413.479150
15.033417	1	362.123220
15.050083	1	312.417690
15.066750	1	265.119970
15.083417	1	221.023480
15.100083	1	180.890440
15.116750	1	145.364450
15.133417	1	114.880770
15.150083	1	89.597360
15.166750	1	69.367370
15.183417	1	53.762590
15.200083	1	42.142730
15.216750	1	33.752360
15.233417	1	27.821950
15.250083	1	23.651960
15.266750	1	20.666700
15.283417	1	18.434410
15.300083	1	16.659550
15.316750	1	15.158120
15.333417	1	13.827480
15.350083	1	12.619550
15.366750	1	11.521430
15.383417	1	10.543940
15.400083	1	9.717050
15.416750	1	9.092770
15.433417	1	8.755260
15.450083	1	8.831090
15.466750	1	9.482800
15.483417	1	10.868190
15.500083	1	13.066360
15.516750	1	16.001030
15.533417	1	19.407230
15.550083	1	22.871520
15.566750	1	25.934900
15.583417	1	28.212760
15.600083	1	29.480200
15.616750	1	29.696530
15.633417	1	28.977460
15.650083	1	27.545060
15.666750	1	25.682910
15.683417	1	23.706960
15.700083	1	21.943290
15.716750	1	20.696440
15.733417	1	20.199940
15.750083	1	20.560850
15.766750	1	21.725330
15.783417	1	23.490460
15.800083	1	25.565630
15.816750	1	27.657790
15.833417	1	29.540370
15.850083	1	31.076770
15.866750	1	32.199030
15.883417	1	32.867830
15.900083	1	33.045330
15.916750	1	32.696830
15.933417	1	31.813920
15.950083	1	30.437750
15.966750	1	28.663640
15.983417	1	26.622930
16.000083	1	24.452680
16.016750	1	22.268310
16.033417	1	20.149790
16.050083	1	18.143370
16.066750	1	16.273130
16.083417	1	14.553990
16.100083	1	12.999670
16.116750	1	11.623880
16.133417	1	10.436960
16.150083	1	9.441740
16.166750	1	8.631130
16.183417	1	7.988760
16.200083	1	7.491660
16.216750	1	7.113450
16.233417	1	6.827160
16.250083	1	6.607700
16.266750	1	6.433940
16.283417	1	6.290750
16.300083	1	6.171190
16.316750	1	6.078550
16.333417	1	6.027100
16.350083	1	6.040240
16.366750	1	6.146180
16.383417	1	6.372450
16.400083	1	6.741240
16.416750	1	7.268260
16.433417	1	7.967140
16.450083	1	8.860740
16.466750	1	9.998450
16.483417	1	11.473960
16.500083	1	13.432910
16.516750	1	16.057250
16.533417	1	19.518370
16.550083	1	23.904570
16.566750	1	29.146490
16.583417	1	34.973930
16.600083	1	40.931000
16.616750	1	46.454120
16.633417	1	50.990810
16.650083	1	54.120060
16.666750	1	55.633650
16.683417	1	55.554810
16.700083	1	54.095270
16.716750	1	51.573400
16.733417	1	48.325870
16.750083	1	44.641210
16.766750	1	40.729520
16.783417	1	36.726320
16.800083	1	32.717570
16.816750	1	28.769460
16.833417	1	24.949660
16.850083	1	21.334620
16.866750	1	18.004420
16.883417	1	15.030790
16.900083	1	12.464850
16.916750	1	10.329360
16.933417	1	8.617320
16.950083	1	7.296360
16.966750	1	6.316900
16.983417	1	5.621260
17.000083	1	5.151410
17.016750	1	4.853860
17.033417	1	4.682070
17.050083	1	4.597100
17.066750	1	4.567170
17.083417	1	4.566670
17.100083	1	4.575190
17.116750	1	4.577090
17.133417	1	4.561380
17.150083	1	4.521610
17.166750	1	4.455410
17.183417	1	4.363510
17.200083	1	4.248420
17.216750	1	4.113420
17.233417	1	3.962060
17.250083	1	3.797860
17.266750	1	3.624430
17.283417	1	3.445700
17.300083	1	3.265940
17.316750	1	3.089370
17.333417	1	2.919870
17.350083	1	2.761020
17.366750	1	2.615930
17.383417	1	2.486990
17.400083	1	2.375630
17.416750	1	2.282330
17.433417	1	2.206470
17.450083	1	2.146460
17.466750	1	2.099840
17.483417	1	2.063570
17.500083	1	2.034420
17.516750	1	2.009790
17.533417	1	1.988200
17.550083	1	1.969440
17.566750	1	1.954270
17.583417	1	1.944000
17.600083	1	1.939800
17.616750	1	1.941990
17.633417	1	1.949700
17.650083	1	1.961150
17.666750	1	1.974200
17.683417	1	1.986990
17.700083	1	1.998290
17.716750	1	2.007540
17.733417	1	2.014720
17.750083	1	2.020160
17.766750	1	2.024310
17.783417	1	2.027340
17.800083	1	2.029050
17.816750	1	2.029120
17.833417	1	2.027260
17.850083	1	2.023150
17.866750	1	2.016560
17.883417	1	2.007720
17.900083	1	1.997660
17.916750	1	1.988550
17.933417	1	1.984100
17.950083	1	1.989850
17.966750	1	2.012920
17.983417	1	2.061240
18.000083	1	2.142260
18.016750	1	2.261110
18.033417	1	2.418850
18.050083	1	2.610970
18.066750	1	2.827110
18.083417	1	3.052140
18.100083	1	3.268390
18.116750	1	3.458650
18.133417	1	3.609200
18.150083	1	3.712030
18.166750	1	3.765590
18.183417	1	3.774130
18.200083	1	3.746080
18.216750	1	3.692120
18.233417	1	3.623490
18.250083	1	3.551120
18.266750	1	3.486450
18.283417	1	3.443630
18.300083	1	3.443110
18.316750	1	3.516050
18.333417	1	3.709040
18.350083	1	4.089130
18.366750	1	4.749660
18.383417	1	5.816810
18.400083	1	7.456920
18.416750	1	9.883940
18.433417	1	13.365700
18.450083	1	18.226020
18.466750	1	24.838650
18.483417	1	33.607870
18.500083	1	44.931570
18.516750	1	59.145290
18.533417	1	76.450880
18.550083	1	96.839950
18.566750	1	120.028190
18.583417	1	145.417290
18.600083	1	172.099000
18.616750	1	198.909910
18.633417	1	224.534560
18.650083	1	247.643700
18.666750	1	267.045880
18.683417	1	281.826680
18.700083	1	291.450780
18.716750	1	295.808850
18.733417	1	295.201630
18.750083	1	290.265320
18.766750	1	281.853370
18.783417	1	270.897290
18.800083	1	258.272490
18.816750	1	244.692500
18.833417	1	230.647940
18.850083	1	216.397300
18.866750	1	202.004960
18.883417	1	187.412140
18.900083	1	172.521140
18.916750	1	157.273010
18.933417	1	141.702440
18.950083	1	125.960240
18.966750	1	110.303130
18.983417	1	95.058760
19.000083	1	80.577540
19.016750	1	67.183260
19.033417	1	55.132230
19.050083	1	44.587610
19.066750	1	35.611070
19.083417	1	28.170070
19.100083	1	22.156400
19.116750	1	17.410590
19.133417	1	13.747210
19.150083	1	10.977130
19.166750	1	8.924210
19.183417	1	7.435520
19.200083	1	6.384870
19.216750	1	5.671190
19.233417	1	5.213490
19.250083	1	4.944880
19.266750	1	4.807880
19.283417	1	4.752230
19.300083	1	4.734880
19.316750	1	4.721660
19.333417	1	4.689030
19.350083	1	4.624290
19.366750	1	4.523680
19.383417	1	4.389650
19.400083	1	4.228810
19.416750	1	4.050880
19.433417	1	3.868210
19.450083	1	3.694540
19.466750	1	3.542710
19.483417	1	3.421750
19.500083	1	3.334440
19.516750	1	3.276560
19.533417	1	3.238450
19.550083	1	3.208420
19.566750	1	3.176650
19.583417	1	3.138210
19.600083	1	3.094520
19.616750	1	3.053020
19.633417	1	3.025340
19.650083	1	3.024360
19.666750	1	3.060930
19.683417	1	3.140860
19.700083	1	3.262650
19.716750	1	3.416630
19.733417	1	3.586190
19.750083	1	3.750940
19.766750	1	3.891340
19.783417	1	3.992810
19.800083	1	4.047940
19.816750	1	4.056030
19.833417	1	4.021050
19.850083	1	3.949570
19.866750	1	3.849640
19.883417	1	3.730570
19.900083	1	3.602840
19.916750	1	3.477780
19.933417	1	3.366640
19.950083	1	3.279300
19.966750	1	3.222870
19.983417	1	3.200640
20.000083	1	3.211610
20.016750	1	3.250830
20.033417	1	3.310130
20.050083	1	3.379480
20.066750	1	3.448650
20.083417	1	3.508980
20.100083	1	3.554960
20.116750	1	3.585230
20.133417	1	3.602320
20.150083	1	3.611000
20.166750	1	3.616240
20.183417	1	3.621530
20.200083	1	3.627770
20.216750	1	3.633040
20.233417	1	3.633160
20.250083	1	3.622810
20.266750	1	3.596930
20.283417	1	3.551790
20.300083	1	3.485910
20.316750	1	3.400600
20.333417	1	3.299700
20.350083	1	3.188880
20.366750	1	3.074380
20.383417	1	2.961810
20.400083	1	2.855320
20.416750	1	2.757400
20.433417	1	2.669220
20.450083	1	2.591240
20.466750	1	2.523790
20.483417	1	2.467270
20.500083	1	2.422550
20.516750	1	2.391330
20.533417	1	2.375990
20.550083	1	2.379140
20.566750	1	2.403080
20.583417	1	2.449090
20.600083	1	2.516990
20.616750	1	2.605090
20.633417	1	2.710630
20.650083	1	2.830440
20.666750	1	2.961670
20.683417	1	3.102350
20.700083	1	3.251780
20.716750	1	3.410190
20.733417	1	3.577850
20.750083	1	3.753860
20.766750	1	3.934880
20.783417	1	4.114490
20.800083	1	4.283200
20.816750	1	4.429450
20.833417	1	4.541280
20.850083	1	4.608440
20.866750	1	4.624020
20.883417	1	4.585100
20.900083	1	4.492660
20.916750	1	4.351060
20.933417	1	4.167650
20.950083	1	3.952330
20.966750	1	3.717260
20.983417	1	3.476370
21.000083	1	3.244160
21.016750	1	3.033840
21.033417	1	2.855680
21.050083	1	2.716060
21.066750	1	2.617420
21.083417	1	2.559220
21.100083	1	2.539560
21.116750	1	2.557350
21.133417	1	2.614190
21.150083	1	2.715000
21.166750	1	2.866550
21.183417	1	3.073850
21.200083	1	3.335590
21.216750	1	3.640780
21.233417	1	3.968640
21.250083	1	4.292160
21.266750	1	4.584330
21.283417	1	4.824670
21.300083	1	5.003730
21.316750	1	5.124140
21.333417	1	5.198100
21.350083	1	5.243620
21.366750	1	5.285700
21.383417	1	5.389940
21.400083	1	5.809800
21.416750	1	7.352690
21.433417	1	11.899760
21.450083	1	22.670330
21.466750	1	43.702820
21.483417	1	78.457590
21.500083	1	128.138960
21.516750	1	190.648260
21.533417	1	260.756000
21.550083	1	331.418970
21.566750	1	395.628260
21.583417	1	448.030000
21.600083	1	485.797630
21.616750	1	508.643880
21.633417	1	518.200930
21.650083	1	517.142290
21.666750	1	508.376810
21.683417	1	494.503500
21.700083	1	477.570180
21.716750	1	459.082460
21.733417	1	440.171800
21.750083	1	421.837070
21.766750	1	405.198030
21.783417	1	391.718280
21.800083	1	383.352700
21.816750	1	382.555400
21.833417	1	392.073250
21.850083	1	414.477570
21.866750	1	451.467000
21.883417	1	503.091020
21.900083	1	567.142370
21.916750	1	638.984890
21.933417	1	711.988610
21.950083	1	778.555410
21.966750	1	831.499380
21.983417	1	865.388230
22.000083	1	877.440560
22.016750	1	867.726830
22.033417	1	838.677010
22.050083	1	794.140510
22.066750	1	738.363710
22.083417	1	675.210630
22.100083	1	607.793660
22.116750	1	538.490680
22.133417	1	469.187810
22.150083	1	401.550490
22.166750	1	337.179070
22.183417	1	277.601100
22.200083	1	224.140560
22.216750	1	177.749140
22.233417	1	138.882050
22.250083	1	107.465700
22.266750	1	82.960730
22.283417	1	64.492530
22.300083	1	51.008430
22.316750	1	41.423720
22.333417	1	34.732270
22.350083	1	30.074150
22.366750	1	26.764930
22.383417	1	24.296680
22.400083	1	22.320260
22.416750	1	20.616730
22.433417	1	19.063900
22.450083	1	17.603500
22.466750	1	16.213620
22.483417	1	14.889640
22.500083	1	13.634180
22.516750	1	12.453850
22.533417	1	11.359620
22.550083	1	10.366870
22.566750	1	9.493170
22.583417	1	8.754300
22.600083	1	8.160120
22.616750	1	7.711980
22.633417	1	7.401970
22.650083	1	7.214000
22.666750	1	7.125760
22.683417	1	7.111230
22.700083	1	7.144370
22.716750	1	7.204540
22.733417	1	7.283380
22.750083	1	7.392810
22.766750	1	7.573070
22.783417	1	7.900050
22.800083	1	8.490580
22.816750	1	9.503170
22.833417	1	11.130300
22.850083	1	13.576560
22.866750	1	17.018960
22.883417	1	21.552810
22.900083	1	27.136680
22.916750	1	33.556940
22.933417	1	40.430400
22.950083	1	47.252600
22.966750	1	53.483320
22.983417	1	58.645780
23.000083	1	62.410310
23.016750	1	64.639230
23.033417	1	65.383440
23.050083	1	64.837460
23.066750	1	63.273220
23.083417	1	60.977330
23.100083	1	58.209110
23.116750	1	55.181900
23.133417	1	52.057010
23.150083	1	48.938430
23.166750	1	45.866780
23.183417	1	42.822140
23.200083	1	39.745100
23.216750	1	36.572410
23.233417	1	33.271550
23.250083	1	29.858910
23.266750	1	26.397360
23.283417	1	22.979420
23.300083	1	19.706350
23.316750	1	16.670810
23.333417	1	13.945900
23.350083	1	11.579880
23.366750	1	9.595210
23.383417	1	7.991530
23.400083	1	6.752750
23.416750	1	5.857100
23.433417	1	5.287240
23.450083	1	5.035180
23.466750	1	5.098730
23.483417	1	5.469930
23.500083	1	6.120680
23.516750	1	6.991800
23.533417	1	7.990420
23.550083	1	8.999030
23.566750	1	9.895300
23.583417	1	10.576090
23.600083	1	10.976030
23.616750	1	11.074870
23.633417	1	10.894780
23.650083	1	10.493810
23.666750	1	9.962450
23.683417	1	9.471230
23.700083	1	9.619640
23.716750	1	12.545110
23.733417	1	23.682680
23.750083	1	52.610250
23.766750	1	110.943070
23.783417	1	207.234210
23.800083	1	341.599490
23.816750	1	503.463710
23.833417	1	673.880030
23.850083	1	831.134130
23.866750	1	956.813640
23.883417	1	1,039.851520
23.900083	1	1,077.533680
23.916750	1	1,073.957220
23.933417	1	1,037.210490
23.950083	1	976.547910
23.966750	1	900.367960
23.983417	1	815.241460
24.000083	1	725.823630
24.016750	1	635.296060
24.033417	1	545.980660
24.050083	1	459.859070
24.066750	1	378.852980
24.083417	1	304.838140
24.100083	1	239.480050
24.116750	1	184.141260
24.133417	1	140.291760
24.150083	1	110.639760
24.166750	1	100.234820
24.183417	1	115.984830
24.200083	1	163.839260
24.216750	1	244.942760
24.233417	1	353.234260
24.250083	1	476.106120
24.266750	1	597.770710
24.283417	1	703.542450
24.300083	1	783.137550
24.316750	1	831.996430
24.333417	1	850.723220
24.350083	1	843.404890
24.366750	1	815.685780
24.383417	1	773.219900
24.400083	1	720.762980
24.416750	1	661.874600
24.433417	1	599.046590
24.450083	1	534.045040
24.466750	1	468.293320
24.483417	1	403.174050
24.500083	1	340.177660
24.516750	1	280.885580
24.533417	1	226.825170
24.550083	1	179.259760
24.566750	1	138.989540
24.583417	1	106.233280
24.600083	1	80.630000
24.616750	1	61.354570
24.633417	1	47.303560
24.650083	1	37.293920
24.666750	1	30.226300
24.683417	1	25.187400
24.700083	1	21.488810
24.716750	1	18.656140
24.733417	1	16.389440
24.750083	1	14.514440
24.766750	1	12.937890
24.783417	1	11.613030
24.800083	1	10.515810
24.816750	1	9.629880
24.833417	1	8.938030
24.850083	1	8.418760
24.866750	1	8.046720
24.883417	1	7.795200
24.900083	1	7.638240
24.916750	1	7.551360
24.933417	1	7.511600
24.950083	1	7.497870
24.966750	1	7.492090
24.983417	1	7.480330
25.000083	1	7.453080
25.016750	1	7.404450
25.033417	1	7.331620
25.050083	1	7.236830
25.066750	1	7.134890
25.083417	1	7.070810
25.100083	1	7.148750
25.116750	1	7.559020
25.133417	1	8.567880
25.150083	1	10.434850
25.166750	1	13.267990
25.183417	1	16.892510
25.200083	1	20.825920
25.216750	1	24.394000
25.233417	1	26.935030
25.250083	1	27.996160
25.266750	1	27.445000
25.283417	1	25.470420
25.300083	1	22.493430
25.316750	1	19.033320
25.333417	1	15.577730
25.350083	1	12.492100
25.366750	1	9.982550
25.383417	1	8.105960
25.400083	1	6.809350
25.416750	1	5.978880
25.433417	1	5.483420
25.450083	1	5.205270
25.466750	1	5.055920
25.483417	1	4.979210
25.500083	1	4.946060
25.516750	1	4.945580
25.533417	1	4.976180
25.550083	1	5.038810
25.566750	1	5.132950
25.583417	1	5.254510
25.600083	1	5.394850
25.616750	1	5.540740
25.633417	1	5.675320
25.650083	1	5.780450
25.666750	1	5.840270
25.683417	1	5.844460
25.700083	1	5.790260
25.716750	1	5.683160
25.733417	1	5.537640
25.750083	1	5.381470
25.766750	1	5.268840
25.783417	1	5.308110
25.800083	1	5.713560
25.816750	1	6.892360
25.833417	1	9.541540
25.850083	1	14.633970
25.866750	1	23.129380
25.883417	1	35.421520
25.900083	1	50.830650
25.916750	1	67.527400
25.933417	1	82.990160
25.950083	1	94.740930
25.966750	1	101.000850
25.983417	1	101.055580
26.000083	1	95.306790
26.016750	1	85.078020
26.033417	1	72.265100
26.050083	1	58.926670
26.066750	1	46.902040
26.083417	1	37.517030
26.100083	1	31.413360
26.116750	1	28.523710
26.133417	1	28.195660
26.150083	1	29.429260
26.166750	1	31.155070
26.183417	1	32.472150
26.200083	1	32.794570
26.216750	1	31.934990
26.233417	1	30.394130
26.250083	1	30.402370
26.266750	1	37.732840
26.283417	1	62.685830
26.300083	1	117.930030
26.316750	1	212.967800
26.333417	1	348.157180
26.350083	1	512.124570
26.366750	1	684.267770
26.383417	1	840.949950
26.400083	1	962.235500
26.416750	1	1,036.369060
26.433417	1	1,060.864020
26.450083	1	1,040.758670
26.466750	1	985.484070
26.483417	1	905.768990
26.500083	1	811.455300
26.516750	1	710.458610
26.533417	1	608.654230
26.550083	1	510.270960
26.566750	1	418.393080
26.583417	1	335.315840
26.600083	1	262.676580
26.616750	1	201.421580
26.633417	1	151.732340
26.650083	1	113.022820
26.666750	1	84.059980
26.683417	1	63.191670
26.700083	1	48.619840
26.716750	1	38.646260
26.733417	1	31.838190
26.750083	1	27.097590
26.766750	1	23.650360
26.783417	1	20.989190
26.800083	1	18.819400
26.816750	1	17.191010
26.833417	1	17.337320
26.850083	1	23.602040
26.866750	1	45.296410
26.883417	1	95.750160
26.900083	1	187.118590
26.916750	1	323.274040
26.933417	1	495.338720
26.950083	1	682.839580
26.966750	1	859.827320
26.983417	1	1,002.639950
27.000083	1	1,095.790010
27.016750	1	1,134.140250
27.033417	1	1,121.596730
27.050083	1	1,067.821730
27.066750	1	984.658680
27.083417	1	883.424110
27.100083	1	773.480300
27.116750	1	661.919620
27.133417	1	553.904010
27.150083	1	453.187330
27.166750	1	362.503260
27.183417	1	283.712500
27.200083	1	217.776690
27.216750	1	164.706870
27.233417	1	123.614660
27.250083	1	92.913170
27.266750	1	70.627810
27.283417	1	54.728890
27.300083	1	43.400590
27.316750	1	35.198420
27.333417	1	29.112620
27.350083	1	24.774920
27.366750	1	23.489010
27.383417	1	30.557110
27.400083	1	57.482660
27.416750	1	120.840130
27.433417	1	236.232390
27.450083	1	410.018820
27.466750	1	633.859530
27.483417	1	885.397500
27.500083	1	1,134.598190
27.516750	1	1,352.405100
27.533417	1	1,517.892310
27.550083	1	1,621.601540
27.566750	1	1,664.891260
27.583417	1	1,656.664900
27.600083	1	1,609.306490
27.616750	1	1,535.254710
27.633417	1	1,444.892680
27.650083	1	1,345.759180
27.666750	1	1,242.710140
27.683417	1	1,138.566390
27.700083	1	1,034.868770
27.716750	1	932.513800
27.733417	1	832.184850
27.750083	1	734.586410
27.766750	1	640.531080
27.783417	1	550.935070
27.800083	1	466.767770
27.816750	1	388.984640
27.833417	1	318.456330
27.850083	1	255.894640
27.866750	1	201.773780
27.883417	1	156.254650
27.900083	1	119.131970
27.916750	1	89.828640
27.933417	1	67.451250
27.950083	1	50.899370
27.966750	1	39.001660
27.983417	1	30.643980
28.000083	1	24.860630
28.016750	1	20.877100
28.033417	1	18.110540
28.050083	1	16.145210
28.066750	1	14.700030
28.083417	1	13.597050
28.100083	1	12.733030
28.116750	1	12.052940
28.133417	1	11.526680
28.150083	1	11.132200
28.166750	1	10.848560
28.183417	1	10.657210
28.200083	1	10.545110
28.216750	1	10.502940
28.233417	1	10.517130
28.250083	1	10.561160
28.266750	1	10.593790
28.283417	1	10.567370
28.300083	1	10.441260
28.316750	1	10.192990
28.333417	1	9.822760
28.350083	1	9.352070
28.366750	1	8.819640
28.383417	1	8.276550
28.400083	1	7.780770
28.416750	1	7.389900
28.433417	1	7.151920
28.450083	1	7.095470
28.466750	1	7.223060
28.483417	1	7.510230
28.500083	1	7.912100
28.516750	1	8.374830
28.533417	1	8.846440
28.550083	1	9.282840
28.566750	1	9.648630
28.583417	1	9.915370
28.600083	1	10.060010
28.616750	1	10.065070
28.633417	1	9.921300
28.650083	1	9.631520
28.666750	1	9.213210
28.683417	1	8.697680
28.700083	1	8.125940
28.716750	1	7.542310
28.733417	1	6.987860
28.750083	1	6.494880
28.766750	1	6.083440
28.783417	1	5.760500
28.800083	1	5.521180
28.816750	1	5.352060
28.833417	1	5.235590
28.850083	1	5.154430
28.866750	1	5.095150
28.883417	1	5.050940
28.900083	1	5.023970
28.916750	1	5.026700
28.933417	1	5.081490
28.950083	1	5.216320
28.966750	1	5.455420
28.983417	1	5.806390
29.000083	1	6.250050
29.016750	1	6.739910
29.033417	1	7.213410
29.050083	1	7.611580
29.066750	1	7.899280
29.083417	1	8.077870
29.100083	1	8.184860
29.116750	1	8.280170
29.133417	1	8.423480
29.150083	1	8.651020
29.166750	1	8.961640
29.183417	1	9.319260
29.200083	1	9.674620
29.216750	1	10.010810
29.233417	1	10.438440
29.250083	1	11.400660
29.266750	1	14.018250
29.283417	1	20.400540
29.300083	1	33.485790
29.316750	1	56.064300
29.333417	1	89.248320
29.350083	1	131.269180
29.366750	1	177.454610
29.383417	1	221.778990
29.400083	1	260.274250
29.416750	1	296.104750
29.433417	1	343.593160
29.450083	1	426.308170
29.466750	1	567.349730
29.483417	1	776.603080
29.500083	1	1,042.780270
29.516750	1	1,334.809290
29.533417	1	1,611.365050
29.550083	1	1,833.446450
29.566750	1	1,974.471870
29.583417	1	2,024.639290
29.600083	1	1,989.450880
29.616750	1	1,884.584540
29.633417	1	1,729.915260
29.650083	1	1,544.775320
29.666750	1	1,345.330800
29.683417	1	1,143.909340
29.700083	1	949.533350
29.716750	1	768.812760
29.733417	1	606.601900
29.750083	1	466.220080
29.766750	1	349.370530
29.783417	1	256.037960
29.800083	1	184.590020
29.816750	1	132.145740
29.833417	1	95.124460
29.850083	1	69.821290
29.866750	1	52.871930
29.883417	1	41.533320
29.900083	1	33.776970
29.916750	1	28.238390
29.933417	1	24.083760
29.950083	1	20.849040
29.966750	1	18.291330
29.983417	1	16.274570
30.000083	1	14.698010
30.016750	1	13.463630
30.033417	1	12.471630
30.050083	1	11.629700
30.066750	1	10.864540
30.083417	1	10.129050
30.100083	1	9.403060
30.116750	1	8.688930
30.133417	1	8.004320
30.150083	1	7.374520
30.166750	1	6.826390
30.183417	1	6.386490
30.200083	1	6.086670
30.216750	1	5.979530
30.233417	1	6.156910
30.250083	1	6.750470
30.266750	1	7.891840
30.283417	1	9.635660
30.300083	1	11.885770
30.316750	1	14.375860
30.333417	1	16.730280
30.350083	1	18.592620
30.366750	1	19.792790
30.383417	1	20.534200
30.400083	1	21.606100
30.416750	1	24.631660
30.433417	1	32.312450
30.450083	1	48.519070
30.466750	1	77.975710
30.483417	1	125.322070
30.500083	1	193.586880
30.516750	1	282.497350
30.533417	1	387.348670
30.550083	1	499.115510
30.566750	1	606.032360
30.583417	1	696.198110
30.600083	1	760.256070
30.616750	1	793.326980
30.633417	1	796.471700
30.650083	1	778.964610
30.666750	1	760.908670
30.683417	1	772.008210
30.700083	1	842.769210
30.716750	1	990.889930
30.733417	1	1,210.949370
30.750083	1	1,473.797110
30.766750	1	1,735.777680
30.783417	1	1,952.679300
30.800083	1	2,091.938810
30.816750	1	2,138.812430
30.833417	1	2,095.848050
30.850083	1	1,977.827160
30.866750	1	1,805.299640
30.883417	1	1,599.199750
30.900083	1	1,377.697640
30.916750	1	1,155.190560
30.933417	1	942.602960
30.950083	1	748.049220
30.966750	1	577.259220
30.983417	1	433.670210
31.000083	1	318.444680
31.016750	1	230.741630
31.033417	1	168.385320
31.050083	1	128.760720
31.066750	1	109.496090
31.083417	1	108.509390
31.100083	1	123.385460
31.116750	1	150.536070
31.133417	1	184.765860
31.150083	1	219.618060
31.166750	1	248.442540
31.183417	1	265.785100
31.200083	1	268.571410
31.216750	1	256.654350
31.233417	1	232.553180
31.250083	1	200.527030
31.266750	1	165.355450
31.283417	1	131.244430
31.300083	1	101.144230
31.316750	1	76.555490
31.333417	1	57.724610
31.350083	1	44.045510
31.366750	1	34.491830
31.383417	1	27.963110
31.400083	1	23.499010
31.416750	1	20.369790
31.433417	1	18.078750
31.450083	1	16.318020
31.466750	1	14.910550
31.483417	1	13.758510
31.500083	1	12.806170
31.516750	1	12.017670
31.533417	1	11.366140
31.550083	1	10.829510
31.566750	1	10.389480
31.583417	1	10.032380
31.600083	1	9.780950
31.616750	1	9.962400
31.633417	1	12.191540
31.650083	1	21.177960
31.666750	1	45.973860
31.683417	1	98.328450
31.700083	1	187.537980
31.716750	1	314.408820
31.733417	1	468.252020
31.750083	1	628.941910
31.766750	1	772.909840
31.783417	1	879.986820
31.800083	1	938.186210
31.816750	1	945.119940
31.833417	1	906.469210
31.850083	1	832.895480
31.866750	1	736.828060
31.883417	1	630.042260
31.900083	1	522.301680
31.916750	1	420.889670
31.933417	1	330.682800
31.950083	1	254.453410
31.966750	1	193.211870
31.983417	1	146.525120
32.000083	1	112.831700
32.016750	1	89.797880
32.033417	1	74.725960
32.050083	1	64.967890
32.066750	1	58.264210
32.083417	1	52.944980
32.100083	1	47.978200
32.116750	1	42.895100
32.133417	1	37.642180
32.150083	1	32.409510
32.166750	1	27.474580
32.183417	1	23.087180
32.200083	1	19.405630
32.216750	1	16.481190
32.233417	1	14.276550
32.250083	1	12.700050
32.266750	1	11.639840
32.283417	1	10.988130
32.300083	1	10.652110
32.316750	1	10.554070
32.333417	1	10.625960
32.350083	1	10.804350
32.366750	1	11.030170
32.383417	1	11.253890
32.400083	1	11.443530
32.416750	1	11.590270
32.433417	1	11.706620
32.450083	1	11.815480
32.466750	1	11.934480
32.483417	1	12.062980
32.500083	1	12.178350
32.516750	1	12.243060
32.533417	1	12.218620
32.550083	1	12.079460
32.566750	1	11.821390
32.583417	1	11.462210
32.600083	1	11.035440
32.616750	1	10.580630
32.633417	1	10.133880
32.650083	1	9.721740
32.666750	1	9.359410
32.683417	1	9.052320
32.700083	1	8.799030
32.716750	1	8.593840
32.733417	1	8.428630
32.750083	1	8.294010
32.766750	1	8.180090
32.783417	1	8.076980
32.800083	1	7.975350
32.816750	1	7.867520
32.833417	1	7.748610
32.850083	1	7.617040
32.866750	1	7.473760
32.883417	1	7.320560
32.900083	1	7.158230
32.916750	1	6.985990
32.933417	1	6.802470
32.950083	1	6.607910
32.966750	1	6.406580
32.983417	1	6.207690
33.000083	1	6.023760
33.016750	1	5.867030
33.033417	1	5.745540
33.050083	1	5.660460
33.066750	1	5.605800
33.083417	1	5.570610
33.100083	1	5.542540
33.116750	1	5.511570
33.133417	1	5.473140
33.150083	1	5.429840
33.166750	1	5.391630
33.183417	1	5.373960
33.200083	1	5.392940
33.216750	1	5.457770
33.233417	1	5.563680
33.250083	1	5.689840
33.266750	1	5.805110
33.283417	1	5.879070
33.300083	1	5.892910
33.316750	1	5.846120
33.333417	1	5.757680
33.350083	1	5.661770
33.366750	1	5.597460
33.383417	1	5.593770
33.400083	1	5.656000
33.416750	1	5.761150
33.433417	1	5.865350
33.450083	1	5.919600
33.466750	1	5.886830
33.483417	1	5.753880
33.500083	1	5.534270
33.516750	1	5.261680
33.533417	1	4.977880
33.550083	1	4.720580
33.566750	1	4.515740
33.583417	1	4.375750
33.600083	1	4.303250
33.616750	1	4.300670
33.633417	1	4.388490
33.650083	1	4.634140
33.666750	1	5.181600
33.683417	1	6.254630
33.700083	1	8.102790
33.716750	1	10.887020
33.733417	1	14.548880
33.750083	1	18.737070
33.766750	1	22.848260
33.783417	1	26.180700
33.800083	1	28.138660
33.816750	1	28.402710
33.833417	1	27.002990
33.850083	1	24.279870
33.866750	1	20.761380
33.883417	1	17.011270
33.900083	1	13.500440
33.916750	1	10.534210
33.933417	1	8.240690
33.950083	1	6.604480
33.966750	1	5.521230
33.983417	1	4.851850
34.000083	1	4.463550
34.016750	1	4.252860
34.033417	1	4.151690
34.050083	1	4.121400
34.066750	1	4.141210
34.083417	1	4.197180
34.100083	1	4.275750
34.116750	1	4.363490
34.133417	1	4.450730
34.150083	1	4.535220
34.166750	1	4.622030
34.183417	1	4.718930
34.200083	1	4.829890
34.216750	1	4.950340
34.233417	1	5.066800
34.250083	1	5.160810
34.266750	1	5.214260
34.283417	1	5.213930
34.300083	1	5.154080
34.316750	1	5.037470
34.333417	1	4.875160
34.350083	1	4.685350
34.366750	1	4.490380
34.383417	1	4.311640
34.400083	1	4.163770
34.416750	1	4.050980
34.433417	1	3.967460
34.450083	1	3.901830
34.466750	1	3.843800
34.483417	1	3.789340
34.500083	1	3.741480
34.516750	1	3.706330
34.533417	1	3.687200
34.550083	1	3.680890
34.566750	1	3.678000
34.583417	1	3.666840
34.600083	1	3.638430
34.616750	1	3.590050
34.633417	1	3.526070
34.650083	1	3.456330
34.666750	1	3.393370
34.683417	1	3.349800
34.700083	1	3.336430
34.716750	1	3.361000
34.733417	1	3.427270
34.750083	1	3.534040
34.766750	1	3.673860
34.783417	1	3.832620
34.800083	1	3.990770
34.816750	1	4.126410
34.833417	1	4.219410
34.850083	1	4.255810
34.866750	1	4.231200
34.883417	1	4.151560
34.900083	1	4.031580
34.916750	1	3.891080
34.933417	1	3.751020
34.950083	1	3.629850
34.966750	1	3.540200
34.983417	1	3.486300
35.000083	1	3.462890
35.016750	1	3.456920
35.033417	1	3.451640
35.050083	1	3.431850
35.066750	1	3.388500
35.083417	1	3.321280
35.100083	1	3.238560
35.116750	1	3.154550
35.133417	1	3.084570
35.150083	1	3.040040
35.166750	1	3.025020
35.183417	1	3.035860
35.200083	1	3.064400
35.216750	1	3.103730
35.233417	1	3.154600
35.250083	1	3.230110
35.266750	1	3.355000
35.283417	1	3.556090
35.300083	1	3.845470
35.316750	1	4.205190
35.333417	1	4.584010
35.350083	1	4.909860
35.366750	1	5.113140
35.383417	1	5.149900
35.400083	1	5.014900
35.416750	1	4.739720
35.433417	1	4.379180
35.450083	1	3.993540
35.466750	1	3.633780
35.483417	1	3.333670
35.500083	1	3.108890
35.516750	1	2.961460
35.533417	1	2.886300
35.550083	1	2.876510
35.566750	1	2.925550
35.583417	1	3.026180
35.600083	1	3.167700
35.616750	1	3.334030
35.633417	1	3.504450
35.650083	1	3.657090
35.666750	1	3.773290
35.683417	1	3.841130
35.700083	1	3.857370
35.716750	1	3.828020
35.733417	1	3.767480
35.750083	1	3.695040
35.766750	1	3.628530
35.783417	1	3.577910
35.800083	1	3.543290
35.816750	1	3.521050
35.833417	1	3.519140
35.850083	1	3.580830
35.866750	1	3.813340
35.883417	1	4.411740
35.900083	1	5.661380
35.916750	1	7.897530
35.933417	1	11.411360
35.950083	1	16.317710
35.966750	1	22.432690
35.983417	1	29.223680
36.000083	1	35.873840
36.016750	1	41.454010
36.033417	1	45.144480
36.050083	1	46.428950
36.066750	1	45.200250
36.083417	1	41.755360
36.100083	1	36.695530
36.116750	1	30.771270
36.133417	1	24.719860
36.150083	1	19.136860
36.166750	1	14.406430
36.183417	1	10.693870
36.200083	1	7.985550
36.216750	1	6.152570
36.233417	1	5.015920
36.250083	1	4.398790
36.266750	1	4.160200
36.283417	1	4.209000
36.300083	1	4.499170
36.316750	1	5.008830
36.333417	1	5.711250
36.350083	1	6.550730
36.366750	1	7.435670
36.383417	1	8.251430
36.400083	1	8.885760
36.416750	1	9.254190
36.433417	1	9.316310
36.450083	1	9.079620
36.466750	1	8.592700
36.483417	1	7.931400
36.500083	1	7.181840
36.516750	1	6.423890
36.533417	1	5.718660
36.550083	1	5.102680
36.566750	1	4.588920
36.583417	1	4.172910
36.600083	1	3.840820
36.616750	1	3.576410
36.633417	1	3.365560
36.650083	1	3.198000
36.666750	1	3.066760
36.683417	1	2.966250
36.700083	1	2.890520
36.716750	1	2.832530
36.733417	1	2.784690
36.750083	1	2.740300
36.766750	1	2.695380
36.783417	1	2.650130
36.800083	1	2.608810
36.816750	1	2.577980
36.833417	1	2.563580
36.850083	1	2.567970
36.866750	1	2.588020
36.883417	1	2.615260
36.900083	1	2.638280
36.916750	1	2.646620
36.933417	1	2.634790
36.950083	1	2.605080
36.966750	1	2.568700
36.983417	1	2.544170
37.000083	1	2.552700
37.016750	1	2.611260
37.033417	1	2.725550
37.050083	1	2.886060
37.066750	1	3.069770
37.083417	1	3.246710
37.100083	1	3.388220
37.116750	1	3.473810
37.133417	1	3.494810
37.150083	1	3.454360
37.166750	1	3.364430
37.183417	1	3.241440
37.200083	1	3.102400
37.216750	1	2.962300
37.233417	1	2.833290
37.250083	1	2.725330
37.266750	1	2.647110
37.283417	1	2.605850
37.300083	1	2.605520
37.316750	1	2.644730
37.333417	1	2.715530
37.350083	1	2.804370
37.366750	1	2.894960
37.383417	1	2.971740
37.400083	1	3.022400
37.416750	1	3.038970
37.433417	1	3.018050
37.450083	1	2.960500
37.466750	1	2.870790
37.483417	1	2.756050
37.500083	1	2.625390
37.516750	1	2.489900
37.533417	1	2.366030
37.550083	1	2.289630
37.566750	1	2.357190
37.583417	1	2.824280
37.600083	1	4.295490
37.616750	1	8.001810
37.633417	1	16.051940
37.650083	1	31.403100
37.666750	1	57.265460
37.683417	1	95.879820
37.700083	1	147.054930
37.716750	1	207.213170
37.733417	1	269.612170
37.750083	1	325.833530
37.766750	1	367.938290
37.783417	1	390.386020
37.800083	1	391.064380
37.816750	1	371.300230
37.833417	1	335.122210
37.850083	1	288.156150
37.866750	1	236.462520
37.883417	1	185.525090
37.900083	1	139.532330
37.916750	1	101.031240
37.933417	1	70.953760
37.950083	1	48.930890
37.966750	1	33.756190
37.983417	1	23.856580
38.000083	1	17.667880
38.016750	1	13.869190
38.033417	1	11.479790
38.050083	1	9.853200
38.066750	1	8.613210
38.083417	1	7.571740
38.100083	1	6.654600
38.116750	1	5.848230
38.133417	1	5.170350
38.150083	1	4.661860
38.166750	1	4.393240
38.183417	1	4.474630
38.200083	1	5.054240
38.216750	1	6.290690
38.233417	1	8.295550
38.250083	1	11.061790
38.266750	1	14.411500
38.283417	1	17.996780
38.300083	1	21.365290
38.316750	1	24.068580
38.333417	1	25.768510
38.350083	1	26.301700
38.366750	1	25.687160
38.383417	1	24.089720
38.400083	1	21.764040
38.416750	1	19.000120
38.433417	1	16.079890
38.450083	1	13.246540
38.466750	1	10.685110
38.483417	1	8.513460
38.500083	1	6.782760
38.516750	1	5.485900
38.533417	1	4.572060
38.550083	1	3.964640
38.566750	1	3.579340
38.583417	1	3.338790
38.600083	1	3.181710
38.616750	1	3.066240
38.633417	1	2.968490
38.650083	1	2.878040
38.666750	1	2.792330
38.683417	1	2.712090
38.700083	1	2.638400
38.716750	1	2.571230
38.733417	1	2.508920
38.750083	1	2.448650
38.766750	1	2.387670
38.783417	1	2.324430
38.800083	1	2.258770
38.816750	1	2.191580
38.833417	1	2.124290
38.850083	1	2.058560
38.866750	1	1.996100
38.883417	1	1.938500
38.900083	1	1.887160
38.916750	1	1.842940
38.933417	1	1.805990
38.950083	1	1.775540
38.966750	1	1.750070
38.983417	1	1.727710
39.000083	1	1.706810
39.016750	1	1.686510
39.033417	1	1.667190
39.050083	1	1.650480
39.066750	1	1.639090
39.083417	1	1.636820
39.100083	1	1.648740
39.116750	1	1.681430
39.133417	1	1.744080
39.150083	1	1.854830
39.166750	1	2.065090
39.183417	1	2.532050
39.200083	1	3.699440
39.216750	1	6.669030
39.233417	1	13.795410
39.250083	1	29.329260
39.266750	1	59.605610
39.283417	1	112.100170
39.300083	1	193.023520
39.316750	1	304.023380
39.333417	1	439.485300
39.350083	1	586.078790
39.366750	1	725.245420
39.383417	1	837.781080
39.400083	1	908.593720
39.416750	1	929.842020
39.433417	1	901.727280
39.450083	1	831.318310
39.466750	1	730.280720
39.483417	1	612.290250
39.500083	1	490.637640
39.516750	1	376.346720
39.533417	1	277.023620
39.550083	1	196.527730
39.566750	1	135.379590
39.583417	1	91.661300
39.600083	1	62.095820
39.616750	1	43.024500
39.633417	1	31.107460
39.650083	1	23.696180
39.666750	1	18.925630
39.683417	1	15.622510
39.700083	1	13.129600
39.716750	1	11.121830
39.733417	1	9.456870
39.750083	1	8.074510
39.766750	1	6.940540
39.783417	1	6.022820
39.800083	1	5.286110
39.816750	1	4.695210
39.833417	1	4.219930
39.850083	1	3.838720
39.866750	1	3.540080
39.883417	1	3.321660
39.900083	1	3.186960
39.916750	1	3.139720
39.933417	1	3.177090
39.950083	1	3.284110
39.966750	1	3.432870
39.983417	1	3.587400
40.000083	1	3.712440
40.016750	1	3.782900
40.033417	1	3.790630
40.050083	1	3.746300
40.066750	1	3.675040
40.083417	1	3.607010
40.100083	1	3.566170
40.116750	1	3.561820
40.133417	1	3.586250
40.150083	1	3.618700
40.166750	1	3.633090
40.183417	1	3.606440
40.200083	1	3.525110
40.216750	1	3.387690
40.233417	1	3.204100
40.250083	1	2.992260
40.266750	1	2.773420
40.283417	1	2.567530
40.300083	1	2.389610
40.316750	1	2.248250
40.333417	1	2.145800
40.350083	1	2.079280
40.366750	1	2.041610
40.383417	1	2.023470
40.400083	1	2.015540
40.416750	1	2.010560
40.433417	1	2.005010
40.450083	1	2.001070
40.466750	1	2.009430
40.483417	1	2.053470
40.500083	1	2.172790
40.516750	1	2.420860
40.533417	1	2.851410
40.550083	1	3.494280
40.566750	1	4.330900
40.583417	1	5.283520
40.600083	1	6.227220
40.616750	1	7.021000
40.633417	1	7.544450
40.650083	1	7.725720
40.666750	1	7.553690
40.683417	1	7.074850
40.700083	1	6.378860
40.716750	1	5.576880
40.733417	1	4.777480
40.750083	1	4.065650
40.766750	1	3.489970
40.783417	1	3.060990
40.800083	1	2.759630
40.816750	1	2.551630
40.833417	1	2.401640
40.850083	1	2.282590
40.866750	1	2.178520
40.883417	1	2.082850
40.900083	1	1.995040
40.916750	1	1.917340
40.933417	1	1.852610
40.950083	1	1.803100
40.966750	1	1.770030
40.983417	1	1.753710
41.000083	1	1.753920
41.016750	1	1.770260
41.033417	1	1.801630
41.050083	1	1.845580
41.066750	1	1.897830
41.083417	1	1.952830
41.100083	1	2.005130
41.116750	1	2.051040
41.133417	1	2.089600
41.150083	1	2.122480
41.166750	1	2.153100
41.183417	1	2.185420
41.200083	1	2.222560
41.216750	1	2.265710
41.233417	1	2.313860
41.250083	1	2.364480
41.266750	1	2.414630
41.283417	1	2.462100
41.300083	1	2.506940
41.316750	1	2.556000
41.333417	1	2.637770
41.350083	1	2.841200
41.366750	1	3.392360
41.383417	1	4.759580
41.400083	1	7.718690
41.416750	1	13.255040
41.433417	1	22.217670
41.450083	1	34.810470
41.466750	1	50.189190
41.483417	1	66.442530
41.500083	1	81.027720
41.516750	1	91.475320
41.533417	1	96.067120
41.550083	1	94.251230
41.566750	1	86.694330
41.583417	1	75.001070
41.600083	1	61.227310
41.616750	1	47.360880
41.633417	1	34.926870
41.650083	1	24.802450
41.666750	1	17.238030
41.683417	1	12.016930
41.700083	1	8.665140
41.716750	1	6.639360
41.733417	1	5.454760
41.750083	1	4.746120
41.766750	1	4.276220
41.783417	1	3.913510
41.800083	1	3.599130
41.816750	1	3.316090
41.833417	1	3.066610
41.850083	1	2.858410
41.866750	1	2.698830
41.883417	1	2.594600
41.900083	1	2.553720
41.916750	1	2.584590
41.933417	1	2.689860
41.950083	1	2.857800
41.966750	1	3.057670
41.983417	1	3.244200
42.000083	1	3.370960
42.016750	1	3.406280
42.033417	1	3.343960
42.050083	1	3.203800
42.066750	1	3.022760
42.083417	1	2.841730
42.100083	1	2.693430
42.116750	1	2.595270
42.133417	1	2.547720
42.150083	1	2.537920
42.166750	1	2.546600
42.183417	1	2.555440
42.200083	1	2.552500
42.216750	1	2.534330
42.233417	1	2.505060
42.250083	1	2.472900
42.266750	1	2.445840
42.283417	1	2.428840
42.300083	1	2.424520
42.316750	1	2.437280
42.333417	1	2.477600
42.350083	1	2.561550
42.366750	1	2.702680
42.383417	1	2.900170
42.400083	1	3.132410
42.416750	1	3.361870
42.433417	1	3.548660
42.450083	1	3.664750
42.466750	1	3.701650
42.483417	1	3.669150
42.500083	1	3.587700
42.516750	1	3.479230
42.533417	1	3.360490
42.550083	1	3.241090
42.566750	1	3.125240
42.583417	1	3.015320
42.600083	1	2.914790
42.616750	1	2.829730
42.633417	1	2.769350
42.650083	1	2.745570
42.666750	1	2.771260
42.683417	1	2.855190
42.700083	1	2.994350
42.716750	1	3.168860
42.733417	1	3.344770
42.750083	1	3.484430
42.766750	1	3.558800
42.783417	1	3.555630
42.800083	1	3.481160
42.816750	1	3.355790
42.833417	1	3.206480
42.850083	1	3.058610
42.866750	1	2.930310
42.883417	1	2.831090
42.900083	1	2.764250
42.916750	1	2.730560
42.933417	1	2.730290
42.950083	1	2.762030
42.966750	1	2.819810
42.983417	1	2.891850
43.000083	1	2.963780
43.016750	1	3.026400
43.033417	1	3.084400
43.050083	1	3.157520
43.066750	1	3.269270
43.083417	1	3.430150
43.100083	1	3.628810
43.116750	1	3.836320
43.133417	1	4.017870
43.150083	1	4.144430
43.166750	1	4.201160
43.183417	1	4.193520
43.200083	1	4.151510
43.216750	1	4.125960
43.233417	1	4.168450
43.250083	1	4.300230
43.266750	1	4.492990
43.283417	1	4.679110
43.300083	1	4.785000
43.316750	1	4.765010
43.333417	1	4.617280
43.350083	1	4.378040
43.366750	1	4.102400
43.383417	1	3.843870
43.400083	1	3.643330
43.416750	1	3.532420
43.433417	1	3.547680
43.450083	1	3.739390
43.466750	1	4.154400
43.483417	1	4.792830
43.500083	1	5.571920
43.516750	1	6.334450
43.533417	1	6.907450
43.550083	1	7.176950
43.566750	1	7.131330
43.583417	1	6.848690
43.600083	1	6.444780
43.616750	1	6.020570
43.633417	1	5.636410
43.650083	1	5.313480
43.666750	1	5.048550
43.683417	1	4.829300
43.700083	1	4.645720
43.716750	1	4.498150
43.733417	1	4.399970
43.750083	1	4.371830
43.766750	1	4.430130
43.783417	1	4.577810
43.800083	1	4.799570
43.816750	1	5.060660
43.833417	1	5.310770
43.850083	1	5.495010
43.866750	1	5.569720
43.883417	1	5.516530
43.900083	1	5.348010
43.916750	1	5.104110
43.933417	1	4.843330
43.950083	1	4.631690
43.966750	1	4.527260
43.983417	1	4.561620
44.000083	1	4.727640
44.016750	1	4.982800
44.033417	1	5.265270
44.050083	1	5.512350
44.066750	1	5.674810
44.083417	1	5.727050
44.100083	1	5.674230
44.116750	1	5.553330
44.133417	1	5.422670
44.150083	1	5.338960
44.166750	1	5.331800
44.183417	1	5.391780
44.200083	1	5.479780
44.216750	1	5.549860
44.233417	1	5.570800
44.250083	1	5.536680
44.266750	1	5.469900
44.283417	1	5.438680
44.300083	1	5.620360
44.316750	1	6.390800
44.333417	1	8.305970
44.350083	1	11.831060
44.366750	1	16.909890
44.383417	1	22.728870
44.400083	1	27.945710
44.416750	1	31.266970
44.433417	1	31.990180
44.450083	1	30.207360
44.466750	1	26.638290
44.483417	1	22.265800
44.500083	1	17.981360
44.516750	1	14.371440
44.533417	1	11.671620
44.550083	1	9.841290
44.566750	1	8.686000
44.583417	1	7.970130
44.600083	1	7.491220
44.616750	1	7.111880
44.633417	1	6.759890
44.650083	1	6.412250
44.666750	1	6.076530
44.683417	1	5.777950
44.700083	1	5.559720
44.716750	1	5.501850
44.733417	1	5.741420
44.750083	1	6.441690
44.766750	1	7.679640
44.783417	1	9.321940
44.800083	1	11.014830
44.816750	1	12.326000
44.833417	1	12.941090
44.850083	1	12.783760
44.866750	1	12.005300
44.883417	1	10.880290
44.900083	1	9.682700
44.916750	1	8.601910
44.933417	1	7.719370
44.950083	1	7.032830
44.966750	1	6.499290
44.983417	1	6.072510
45.000083	1	5.726920
45.016750	1	5.474950
45.033417	1	5.380300
45.050083	1	5.544510
45.066750	1	6.043880
45.083417	1	6.844570
45.100083	1	7.770950
45.116750	1	8.569000
45.133417	1	9.022890
45.150083	1	9.042250
45.166750	1	8.673490
45.183417	1	8.049810
45.200083	1	7.325070
45.216750	1	6.627040
45.233417	1	6.041030
45.250083	1	5.617260
45.266750	1	5.386890
45.283417	1	5.368220
45.300083	1	5.553700
45.316750	1	5.890820
45.333417	1	6.282940
45.350083	1	6.618600
45.366750	1	6.810800
45.383417	1	6.821710
45.400083	1	6.663840
45.416750	1	6.385420
45.433417	1	6.052520
45.450083	1	5.733930
45.466750	1	5.487650
45.483417	1	5.346920
45.500083	1	5.310780
45.516750	1	5.346760
45.533417	1	5.406470
45.550083	1	5.445920
45.566750	1	5.440390
45.583417	1	5.388390
45.600083	1	5.305580
45.616750	1	5.213500
45.633417	1	5.129310
45.650083	1	5.060700
45.666750	1	5.006520
45.683417	1	4.960230
45.700083	1	4.913550
45.716750	1	4.859280
45.733417	1	4.793270
45.750083	1	4.715420
45.766750	1	4.629320
45.783417	1	4.540830
45.800083	1	4.456440
45.816750	1	4.381940
45.833417	1	4.321310
45.850083	1	4.275700
45.866750	1	4.243290
45.883417	1	4.220340
45.900083	1	4.203060
45.916750	1	4.189390
45.933417	1	4.179910
45.950083	1	4.177200
45.966750	1	4.184390
45.983417	1	4.203560
46.000083	1	4.234700
46.016750	1	4.275370
46.033417	1	4.321030
46.050083	1	4.365900
46.066750	1	4.404250
46.083417	1	4.431830
46.100083	1	4.446880
46.116750	1	4.450310
46.133417	1	4.444680
46.150083	1	4.432100
46.166750	1	4.412330
46.183417	1	4.382640
46.200083	1	4.339790
46.216750	1	4.282730
46.233417	1	4.214070
46.250083	1	4.139370
46.266750	1	4.065160
46.283417	1	3.996810
46.300083	1	3.937430
46.316750	1	3.888010
46.333417	1	3.848350
46.350083	1	3.817870
46.366750	1	3.795620
46.383417	1	3.780000
46.400083	1	3.768860
46.416750	1	3.760090
46.433417	1	3.752560
46.450083	1	3.746680
46.466750	1	3.744150
46.483417	1	3.747160
46.500083	1	3.757290
46.516750	1	3.774710
46.533417	1	3.797680
46.550083	1	3.822520
46.566750	1	3.844350
46.583417	1	3.858470
46.600083	1	3.861760
46.616750	1	3.853440
46.633417	1	3.835210
46.650083	1	3.810400
46.666750	1	3.782880
46.683417	1	3.755860
46.700083	1	3.731350
46.716750	1	3.710090
46.733417	1	3.691850
46.750083	1	3.675940
46.766750	1	3.661890
46.783417	1	3.650040
46.800083	1	3.641610
46.816750	1	3.638070
46.833417	1	3.640320
46.850083	1	3.648200
46.866750	1	3.660420
46.883417	1	3.674970
46.900083	1	3.689710
46.916750	1	3.702900
46.933417	1	3.713350
46.950083	1	3.720310
46.966750	1	3.723210
46.983417	1	3.721310
47.000083	1	3.713520
47.016750	1	3.698710
47.033417	1	3.676220
47.050083	1	3.646190
47.066750	1	3.609690
47.083417	1	3.568490
47.100083	1	3.524460
47.116750	1	3.479200
47.133417	1	3.433930
47.150083	1	3.389480
47.166750	1	3.346360
47.183417	1	3.304810
47.200083	1	3.265040
47.216750	1	3.227260
47.233417	1	3.191520
47.250083	1	3.157670
47.266750	1	3.125530
47.283417	1	3.094970
47.300083	1	3.065570
47.316750	1	3.036490
47.333417	1	3.006770
47.350083	1	2.975800
47.366750	1	2.943320
47.383417	1	2.909340
47.400083	1	2.874190
47.416750	1	2.838560
47.433417	1	2.803210
47.450083	1	2.768650
47.466750	1	2.735040
47.483417	1	2.702380
47.500083	1	2.670750
47.516750	1	2.640280
47.533417	1	2.610930
47.550083	1	2.582430
47.566750	1	2.554560
47.583417	1	2.527150
47.600083	1	2.500140
47.616750	1	2.473450
47.633417	1	2.447070
47.650083	1	2.421090
47.666750	1	2.395640
47.683417	1	2.370770
47.700083	1	2.346290
47.716750	1	2.321820
47.733417	1	2.296930
47.750083	1	2.271330
47.766750	1	2.245010
47.783417	1	2.218010
47.800083	1	2.190430
47.816750	1	2.162370
47.833417	1	2.134000
47.850083	1	2.105510
47.866750	1	2.077030
47.883417	1	2.048700
47.900083	1	2.020480
47.916750	1	1.992250
47.933417	1	1.963860
47.950083	1	1.935500
47.966750	1	1.907560
47.983417	1	1.880410
48.000083	1	1.854210
48.016750	1	1.829060
48.033417	1	1.805150
48.050083	1	1.782870
48.066750	1	1.762850
48.083417	1	1.745690
48.100083	1	1.731660
48.116750	1	1.720850
48.133417	1	1.713280
48.150083	1	1.708970
48.166750	1	1.707920
48.183417	1	1.710120
48.200083	1	1.715360
48.216750	1	1.723010
48.233417	1	1.732030
48.250083	1	1.741120
48.266750	1	1.748980
48.283417	1	1.754640
48.300083	1	1.757530
48.316750	1	1.757380
48.333417	1	1.754180
48.350083	1	1.748350
48.366750	1	1.740690
48.383417	1	1.732020
48.400083	1	1.723210
48.416750	1	1.715200
48.433417	1	1.708930
48.450083	1	1.705190
48.466750	1	1.704470
48.483417	1	1.706850
48.500083	1	1.712140
48.516750	1	1.720130
48.533417	1	1.730680
48.550083	1	1.743780
48.566750	1	1.759540
48.583417	1	1.777990
48.600083	1	1.798870
48.616750	1	1.821540
48.633417	1	1.845250
48.650083	1	1.869290
48.666750	1	1.892960
48.683417	1	1.915640
48.700083	1	1.936950
48.716750	1	1.956780
48.733417	1	1.975130
48.750083	1	1.991990
48.766750	1	2.007410
48.783417	1	2.021600
48.800083	1	2.034760
48.816750	1	2.047170
48.833417	1	2.059020
48.850083	1	2.070390
48.866750	1	2.081210
48.883417	1	2.091460
48.900083	1	2.101240
48.916750	1	2.110620
48.933417	1	2.119600
48.950083	1	2.128110
48.966750	1	2.135970
48.983417	1	2.142970
49.000083	1	2.148980
49.016750	1	2.154060
49.033417	1	2.158480
49.050083	1	2.162470
49.066750	1	2.166040
49.083417	1	2.169070
49.100083	1	2.171520
49.116750	1	2.173360
49.133417	1	2.174490
49.150083	1	2.174850
49.166750	1	2.174460
49.183417	1	2.173570
49.200083	1	2.172690
49.216750	1	2.172290
49.233417	1	2.172430
49.250083	1	2.172830
49.266750	1	2.173190
49.283417	1	2.173260
49.300083	1	2.172810
49.316750	1	2.171780
49.333417	1	2.170340
49.350083	1	2.168750
49.366750	1	2.167130
49.383417	1	2.165480
49.400083	1	2.163840
49.416750	1	2.162120
49.433417	1	2.160130
49.450083	1	2.157730
49.466750	1	2.154950
49.483417	1	2.151880
49.500083	1	2.148540
49.516750	1	2.144880
49.533417	1	2.140940
49.550083	1	2.136940
49.566750	1	2.133280
49.583417	1	2.130320
49.600083	1	2.128190
49.616750	1	2.126770
49.633417	1	2.125870
49.650083	1	2.125410
49.666750	1	2.125170
49.683417	1	2.124700
49.700083	1	2.123650
49.716750	1	2.121920
49.733417	1	2.119510
49.750083	1	2.116380
49.766750	1	2.112450
49.783417	1	2.107740
49.800083	1	2.102420
49.816750	1	2.096720
49.833417	1	2.090700
49.850083	1	2.084340
49.866750	1	2.077510
49.883417	1	2.070080
49.900083	1	2.061950
49.916750	1	2.053010
49.933417	1	2.043110
49.950083	1	2.032140
49.966750	1	2.020220
49.983417	1	2.007670
50.000083	1	1.994740
50.016750	1	1.981440
50.033417	1	1.967520
50.050083	1	1.952630
50.066750	1	1.936500
50.083417	1	1.919080
50.100083	1	1.900460
50.116750	1	1.880700
50.133417	1	1.859700
50.150083	1	1.837370
50.166750	1	1.813810
50.183417	1	1.789220
50.200083	1	1.763770
50.216750	1	1.737540
50.233417	1	1.710580
50.250083	1	1.682910
50.266750	1	1.654620
50.283417	1	1.625730
50.300083	1	1.596270
50.316750	1	1.566400
50.333417	1	1.536410
50.350083	1	1.506470
50.366750	1	1.476660
50.383417	1	1.447020
50.400083	1	1.417530
50.416750	1	1.388110
50.433417	1	1.358780
50.450083	1	1.329690
50.466750	1	1.301100
50.483417	1	1.273200
50.500083	1	1.246030
50.516750	1	1.219430
50.533417	1	1.193240
50.550083	1	1.167430
50.566750	1	1.141930
50.583417	1	1.116690
50.600083	1	1.091750
50.616750	1	1.067210
50.633417	1	1.043140
50.650083	1	1.019520
50.666750	1	0.996350
50.683417	1	0.973730
50.700083	1	0.951770
50.716750	1	0.930490
50.733417	1	0.909830
50.750083	1	0.889720
50.766750	1	0.870040
50.783417	1	0.850620
50.800083	1	0.831430
50.816750	1	0.812660
50.833417	1	0.794460
50.850083	1	0.776830
50.866750	1	0.759720
50.883417	1	0.743150
50.900083	1	0.727150
50.916750	1	0.711610
50.933417	1	0.696350
50.950083	1	0.681210
50.966750	1	0.666150
50.983417	1	0.651180
51.000083	1	0.636450
51.016750	1	0.622180
51.033417	1	0.608580
51.050083	1	0.595650
51.066750	1	0.583220
51.083417	1	0.571010
51.100083	1	0.558810
51.116750	1	0.546680
51.133417	1	0.534780
51.150083	1	0.523200
51.166750	1	0.511980
51.183417	1	0.501090
51.200083	1	0.490390
51.216750	1	0.479690
51.233417	1	0.468850
51.250083	1	0.457980
51.266750	1	0.447450
51.283417	1	0.437600
51.300083	1	0.428440
51.316750	1	0.419730
51.333417	1	0.411090
51.350083	1	0.402230
51.366750	1	0.393040
51.383417	1	0.383710
51.400083	1	0.374630
51.416750	1	0.366020
51.433417	1	0.357820
51.450083	1	0.349930
51.466750	1	0.342300
51.483417	1	0.334790
51.500083	1	0.327330
51.516750	1	0.320090
51.533417	1	0.313290
51.550083	1	0.306870
51.566750	1	0.300680
51.583417	1	0.294620
51.600083	1	0.288680
51.616750	1	0.282870
51.633417	1	0.277150
51.650083	1	0.271430
51.666750	1	0.265600
51.683417	1	0.259570
51.700083	1	0.253350
51.716750	1	0.247170
51.733417	1	0.241390
51.750083	1	0.236180
51.766750	1	0.231330
51.783417	1	0.226470
51.800083	1	0.221440
51.816750	1	0.216340
51.833417	1	0.211250
51.850083	1	0.206130
51.866750	1	0.200930
51.883417	1	0.195660
51.900083	1	0.190360
51.916750	1	0.185200
51.933417	1	0.180310
51.950083	1	0.175680
51.966750	1	0.171210
51.983417	1	0.166850
52.000083	1	0.162610
52.016750	1	0.158470
52.033417	1	0.154390
52.050083	1	0.150250
52.066750	1	0.145930
52.083417	1	0.141460
52.100083	1	0.136970
52.116750	1	0.132530
52.133417	1	0.128040
52.150083	1	0.123430
52.166750	1	0.118800
52.183417	1	0.114380
52.200083	1	0.110320
52.216750	1	0.106590
52.233417	1	0.102990
52.250083	1	0.099280
52.266750	1	0.095450
52.283417	1	0.091770
52.300083	1	0.088440
52.316750	1	0.085450
52.333417	1	0.082660
52.350083	1	0.079930
52.366750	1	0.077170
52.383417	1	0.074230
52.400083	1	0.071120
52.416750	1	0.068080
52.433417	1	0.065340
52.450083	1	0.062880
52.466750	1	0.060640
52.483417	1	0.058670
52.500083	1	0.056950
52.516750	1	0.055350
52.533417	1	0.053770
52.550083	1	0.052150
52.566750	1	0.050460
52.583417	1	0.048690
52.600083	1	0.046870
52.616750	1	0.045020
52.633417	1	0.043080
52.650083	1	0.041020
52.666750	1	0.038980
52.683417	1	0.037250
52.700083	1	0.035960
52.716750	1	0.035010
52.733417	1	0.034340
52.750083	1	0.033930
52.766750	1	0.033670
52.783417	1	0.033380
52.800083	1	0.032960
52.816750	1	0.032520
52.833417	1	0.032230
52.850083	1	0.032150
52.866750	1	0.032160
52.883417	1	0.032040
52.900083	1	0.031700
52.916750	1	0.031120
52.933417	1	0.030450
52.950083	1	0.029840
52.966750	1	0.029340
52.983417	1	0.028850
53.000083	1	0.028290
53.016750	1	0.027610
53.033417	1	0.026780
53.050083	1	0.025870
53.066750	1	0.025030
53.083417	1	0.024380
53.100083	1	0.023920
53.116750	1	0.023610
53.133417	1	0.023420
53.150083	1	0.023320
53.166750	1	0.023340
53.183417	1	0.023480
53.200083	1	0.023590
53.216750	1	0.023540
53.233417	1	0.023380
53.250083	1	0.023250
53.266750	1	0.023160
53.283417	1	0.022990
53.300083	1	0.022580
53.316750	1	0.021790
53.333417	1	0.020660
53.350083	1	0.019320
53.366750	1	0.017980
53.383417	1	0.016780
53.400083	1	0.015850
53.416750	1	0.015360
53.433417	1	0.015380
53.450083	1	0.015870
53.466750	1	0.016630
53.483417	1	0.017310
53.500083	1	0.017520
53.516750	1	0.017140
53.533417	1	0.016400
53.550083	1	0.015670
53.566750	1	0.015120
53.583417	1	0.014740
53.600083	1	0.014610
53.616750	1	0.014790
53.633417	1	0.015160
53.650083	1	0.015480
53.666750	1	0.015580
53.683417	1	0.015410
53.700083	1	0.015050
53.716750	1	0.014640
53.733417	1	0.014250
53.750083	1	0.013810
53.766750	1	0.013270
53.783417	1	0.012690
53.800083	1	0.012140
53.816750	1	0.011560
53.833417	1	0.010870
53.850083	1	0.010100
53.866750	1	0.009400
53.883417	1	0.008870
53.900083	1	0.008570
53.916750	1	0.008470
53.933417	1	0.008440
53.950083	1	0.008390
53.966750	1	0.008400
53.983417	1	0.008600
54.000083	1	0.008950
54.016750	1	0.009260
54.033417	1	0.009320
54.050083	1	0.009000
54.066750	1	0.008390
54.083417	1	0.007650
54.100083	1	0.006910
54.116750	1	0.006320
54.133417	1	0.005920
54.150083	1	0.005640
54.166750	1	0.005440
54.183417	1	0.005290
54.200083	1	0.005070
54.216750	1	0.004620
54.233417	1	0.003970
54.250083	1	0.003380
54.266750	1	0.003130
54.283417	1	0.003260
54.300083	1	0.003650
54.316750	1	0.004110
54.333417	1	0.004570
54.350083	1	0.004950
54.366750	1	0.005040
54.383417	1	0.004580
54.400083	1	0.003600
54.416750	1	0.002410
54.433417	1	0.001420
54.450083	1	0.000770
54.466750	1	0.000370
54.483417	1	0.000090
54.500083	1	-0.000090
54.516750	1	-0.000120
54.533417	1	-0.000060
54.550083	1	-0.000050
54.566750	1	-0.000170
54.583417	1	-0.000400
54.600083	1	-0.000720
54.616750	1	-0.001070
54.633417	1	-0.001380
54.650083	1	-0.001620
54.666750	1	-0.001780
54.683417	1	-0.001930
54.700083	1	-0.002110
54.716750	1	-0.002250
54.733417	1	-0.002210
54.750083	1	-0.001910
54.766750	1	-0.001400
54.783417	1	-0.000820
54.800083	1	-0.000370
54.816750	1	-0.000230
54.833417	1	-0.000410
54.850083	1	-0.000860
54.866750	1	-0.001560
54.883417	1	-0.002410
54.900083	1	-0.003240
54.916750	1	-0.003860
54.933417	1	-0.004170
54.950083	1	-0.004230
54.966750	1	-0.004270
54.983417	1	-0.004520
55.000083	1	-0.005130
